95.25088386863091
93.80947722489984
93.16053073391728
94.11098690018277
93.15380890190758
93.21477120373928
92.93834661326855
93.15350736968183
93.49259480833288
93.48749546771053
92.7944706839173
92.80406524957633
93.3737015786592
92.24560968020495
92.96729989167382
92.96447164522056
92.4297623908027
94.1975170280807
96.26337071130222
93.20332686124026
92.73341063042648
93.03870699814338
94.99417609776529
95.46413658273453
93.26313919680926
92.36637606333487
92.2154613246639
92.10942837025422
92.40199539427493
92.49747057180822
95.11127551373984
93.08836660482082
92.07646485673585
91.85914728644319
91.64100788568075
92.18503789629587
91.35884002395285
91.28760555065422
91.52574591004631
91.76397359375444
91.586973669751
91.54980099624696
91.24430302234782
91.43327680669736
91.74426027900925
91.42708205508684
92.21075715632982
94.91189132008698
94.90424748728006
92.7131232542135
91.21293871639182
90.96635711127176
90.9258556374072
90.23891223936751
91.11898238532383
91.19610185768866
90.92704457705234
90.37180883834927
90.37158457780234
90.98959833883204
90.10330296050202
90.47833510570216
90.20236681261896
90.76330474991975
90.58002895024995
90.08791707029029
89.58759313952358
89.98292253132585
90.21630458445833
89.91347148820405
89.97312082110092
92.94537968501237
92.24419920126199
91.6839287623511
90.64520084326189
90.00890908833458
90.0394662272053
90.04669120104978
90.46168968712922
93.01824827038557
90.99483782323198
90.37718491870636
90.07747914576828
90.14609617070523
90.53920144922022
92.80987125298387
93.05756392032393
90.92265411490897
90.8323558426719
89.96380681123736
89.30949774965242
91.51322627825853
90.12591223354258
90.87230292927745
92.60936161325837
93.39963661727467
92.08667036969919
89.52353781879533
89.91562325529318
89.24945206029636
88.79967286883178
89.16014077859549
88.10726737874147
88.62156313377487
88.28284728647259
88.60602502128198
88.63241977963455
88.34998997136618
88.07082334727058
90.7317556480135
89.81455392300555
91.59989632076635
89.45129593677343
88.10830772458057
88.16256754787601
88.56737737219473
87.54636835563524
88.0315648836195
87.69851504699767
87.81321359274564
88.21415785727869
88.22319300036877
87.30754069196007
87.71693560388246
87.67569408674245
87.98790395772056
89.30866830999645
90.25581127424012
87.50178674091936
86.80937960246344
87.02963315605207
86.8208178408264
87.08374948483316
87.25224025087091
86.75657884022917
87.2488466440699
88.03202160664827
86.54978783189603
86.88173479504353
86.99209565301027
86.8476654931037
87.15498538136215
86.77688480069398
86.39553090129107
86.41194598235117
88.34065727828545
88.47168522761105
87.59420295903978
88.62495189971862
86.05935888877484
86.2890849686339
86.1845559039595
86.16180076833712
86.03885529103701
86.11481102686645
86.47204813519653
86.1870404734466
86.06503426958035
85.82700147499494
85.69219523855163
85.94911872208367
86.08263803617835
85.78870465159405
86.2220125508768
85.59473597914118
85.19343431992174
85.08254098989775
86.11049062623691
85.41045279316143
85.43239578355305
84.99496161804387
85.29760602647696
85.27666084154174
85.29589095087883
85.16079477108393
85.30189075948425
85.23281469051712
84.54558934959789
85.06925386163616
84.56333316838351
85.26591293909918
84.65982242392286
85.1902266333728
86.38330086332643
85.13101370018794
83.9211796889758
84.2139458104475
84.37341349133139
85.01905978105816
84.42765654965409
85.06679149236648
85.23554626722817
86.62628148576965
84.30784381412627
84.32134841207433
84.24623076135558
84.34004326820278
83.88879772936279
84.35849839753747
83.54572457668098
84.02989887852918
83.79309537157846
83.85482526133866
83.21261273735948
83.63362100172033
84.08147998450288
83.80972551657923
83.82765657131439
83.79193811621964
83.22993424888715
83.00247804418434
83.11405737607565
83.02601822460444
83.128548967156
83.44805671666305
83.43749245602206
82.82220817942449
82.97313700873265
83.63120722817135
83.01738532334733
82.63427543027524
82.9491086532685
83.00358366047487
82.8217927141762
82.27418715202853
82.45848240922335
82.71278398396241
82.52435698164817
82.71925392065516
82.4299134617468
82.53149424167314
82.51097358287431
84.97046840413931
83.55001957846514
82.81602742456008
82.72715722328752
82.23434733376828
81.90851560526838
82.0109644922424
82.44953173414348
82.15461541994213
81.93679761100182
81.49670154880086
82.362938037415
82.1272592464668
81.69006982828046
81.82647436434485
81.75391497068551
81.68540657256978
82.11917685800724
81.33195764450788
81.16631489519939
81.42681535152167
81.36858573198722
81.18806504771545
81.28834201616709
81.63590734662688
81.28317452336859
81.35724871149978
81.04881977798397
81.07715120018825
80.73832752767977
81.42366445386999
81.36029535725882
82.7995808804775
82.8511005345192
81.11718464542011
81.28221990085457
80.43070295689465
80.309039122371
80.91804934284409
80.91188450699205
80.70896149804557
81.23372006393404
84.47124379895705
82.90808826371757
82.59612087788068
81.42780802661811
80.53073489959131
80.0877184544376
80.6825266541902
82.333163798022
81.38411296106516
80.08687442119104
79.96738568003276
79.98894870050023
79.48662309562965
79.63959092299207
79.84731659698026
79.71311304044819
79.6280171561342
79.7561766497758
79.44582706553864
79.10288584252321
79.59648727623113
79.59269991018411
79.31113052623833
79.29174419091856
79.06862798333461
78.67187688558926
78.76839933782932
78.37347399888806
79.33505045433
78.88857158425336
78.90786318562492
78.92116982406002
78.60421544226047
79.18222554467027
78.89374384104472
78.5190512259037
78.33226274422319
78.98706748074916
78.51157712089953
77.9766296315874
78.34955145484862
78.62252169536404
79.56530475766657
78.85767636143615
79.40557873695765
78.0888094435721
77.79089687620498
77.7057173479257
77.88145986180291
77.86623534099719
78.01111559610025
78.22667017087076
77.94572690217353
77.69086402728145
78.01115220107323
76.81883738196652
77.39759397197001
78.05136534221992
77.61504470285549
77.03688875051999
77.6277825644209
77.09809393119689
77.88342883380915
80.45843067390943
77.59622979969092
76.90448640448747
77.50513730816715
76.73882126209662
76.80860024808791
76.69965776655059
76.9227367514476
76.7671849273715
76.95931328347822
76.69301445076199
76.87091462243916
76.6980499025208
76.60037245138334
76.60520664860107
76.84098588663171
76.26034478160321
76.12718995752168
76.51667215067175
76.76178932794541
76.16921457662218
75.87028023560885
76.23252218016175
76.72068519018825
78.24663504944549
76.44101749115902
76.0475208633787
75.73844814327181
75.34782470113463
75.90486386091074
76.13843136729902
75.5741813884501
76.13856016965583
76.20776868381508
75.55780755498974
75.7527530576794
75.28112813565356
75.19336201751851
75.08326105708225
76.01300168870844
75.5566940715708
76.08328325932733
76.41547738285547
75.71274237694985
75.2486662115521
74.93475414073471
75.55066464614895
74.92103277165485
74.25422268333722
74.85415404524453
74.78062155914613
75.23617661960472
75.32444574637773
77.7925284568822
75.01910255191842
74.88335200473152
74.85955671651229
74.9172066399723
75.49624303781553
74.62776322710131
74.32113577994753
74.53122016698566
74.15333340338468
74.52923927006879
74.04461952155631
74.5102876399708
74.03235035587093
74.3084223083727
73.73554482226484
73.63443412042119
73.5608859377131
73.96847406269374
73.76873832638383
73.90418762829225
73.66578203834315
73.47189163787196
73.59039068660626
73.19677682360854
73.69301104683035
73.54309493489181
73.24999149714021
73.23001081560325
72.90673576997234
73.14483632605013
73.22940411716023
72.80809230580897
72.95158908248905
72.83917771130632
73.25234210062933
73.3130199530779
73.04313990361851
73.03858531182615
72.80040708815768
72.689577460151
72.36496219429905
72.62527066884617
72.81434153909687
72.49147484653021
72.38393435561423
72.39704160385214
71.94073055089116
72.41812924216369
71.89908446676553
72.1728410363132
72.44826948603101
72.55904642129907
72.25685957581072
71.81525042519533
71.76367208706378
71.81707965216255
71.6821414229645
71.1657723674184
72.26942650330069
71.61149228288615
71.66655633322996
71.57056654312471
71.86834604074443
71.88621899531202
71.55684380165184
71.71073759731647
71.89980397931421
71.4342695662041
71.45637616884062
70.83870172419864
71.21426631663648
72.82957744016537
73.93901336914
71.42892616991568
71.09730755399012
71.39595262648355
71.09864535359539
71.11381760864123
70.23476954845647
70.70017798552848
70.38329846042507
70.67879839737496
70.6769109844279
70.43527146966832
70.63815681990002
70.79563595916822
70.50682382827776
70.82155854239244
71.09021676086337
70.2354979256832
69.57964158570705
69.96145238347567
70.17205958257385
70.12984723851083
69.91934869684438
70.13144274150687
70.32412295775372
69.74878049257802
69.58827903126776
69.5664325431102
70.13331932774364
69.93528240269252
69.8984492494463
69.5331123599824
69.40944419450132
69.82644483898515
69.4264676809071
68.99767802233389
69.72666575781523
69.37612429195181
69.84298745736031
68.69477616249452
69.28473302231345
69.82159243890389
69.29727788538125
70.56897151626633
70.36084062328578
68.81687121114263
69.04862174678011
68.78673323903116
68.65307173515625
68.82398747592192
68.06627164950424
68.91809975670441
68.70390737736982
70.76162576080229
68.21811974755903
69.00855729394935
68.8028587706445
68.32580170796847
68.81102548777622
68.52217110865001
68.00423736036902
67.84618686040146
68.48338889559726
68.3748684548973
68.51392485926633
68.09014331929181
67.65693557027524
68.49590061458197
67.66201314469058
67.59564797847213
67.52293659651932
67.69001693038024
67.46601662343055
68.05194419809128
68.2772236372619
67.68647386727862
67.14341933522407
67.34696045529738
66.93085660479146
67.88173674645684
67.41725742020849
67.15499756345412
66.94207351372644
67.58924456589702
67.3343698572452
66.86911979749264
66.88417114947498
66.64067724804576
66.7247179897917
67.1054179274529
66.74747987940094
67.00204540493978
67.20941985336188
66.58337993033783
66.35494652892046
66.9205671667008
66.01626081352293
66.58114700228022
66.66668094161551
67.08339828332197
66.11664395973693
66.00318625985847
66.17186957946183
66.0174444079384
66.59722894329234
66.50501102892828
66.35114184821501
66.08452440103983
65.59011522891716
65.92249548257391
66.22779098075324
66.49224921093885
65.7657455035297
65.86683700966678
65.59036271484528
65.16620107164219
65.70234467738764
66.93913741820224
65.689875743154
65.90625036386572
65.11315756193089
65.2953857843394
65.22454593030184
66.52361740823125
65.0784983285191
65.62361123136073
65.35156690169326
65.07023345680635
65.55574967853985
66.33170702788517
66.45486127378898
66.87391682388588
65.28287882869624
64.88272402476537
65.00022057109447
65.50931043518807
64.62775740666241
64.5630680642469
65.22558620637551
64.47182802395103
65.45340430916178
64.81056795802985
64.29287996473485
64.45447902701837
64.15639336894239
64.29166729256077
65.36966104431346
64.61488228661244
64.85894832919617
63.87716394230286
63.78827089237577
64.31699724544488
64.66895103711761
64.42118852161646
65.26087011281977
63.91600537752059
63.88729555953204
64.26619610308694
63.55755183384812
63.74741376581738
63.35979191437028
63.220749354251126
63.81690039662807
63.506158941312165
63.672461496261164
63.02170765725374
63.870231311974365
63.27709223006894
63.95059431581394
63.30369700214206
63.12646834044202
63.34848599430843
62.96776469582038
62.81253515384975
63.04344241915296
62.80621547143096
62.3837407422143
63.00659391872314
62.950510880257546
62.645063119929006
62.73161256209295
62.62883640680285
62.6810934413617
62.8334814760673
62.527883987262925
62.71238852958241
62.62672009113121
62.09544182940992
62.20704573963532
62.6367285599481
62.54535069245393
62.7068813824206
62.344270099705405
62.17856778613838
61.96094742345673
62.61577454363116
62.42787154580214
61.95952919488844
61.83036410337649
61.98518163019824
62.431080000466686
61.9382715767839
61.118572534557785
61.876641460797146
62.38468227110754
62.12284157955007
61.45760304914229
61.451193078358884
62.08680052513205
62.93504084419981
61.768513844845586
61.72302318631713
61.25319251558363
61.320664799934576
62.34465054457994
61.77991675355906
62.19843899295047
61.11865594264986
61.38147053004757
61.44375128714864
60.99492138887185
60.71006274453066
61.60887757866639
62.50065086728707
60.94568648221045
60.41809064251304
61.093301674203026
61.93237147517059
61.21960857887642
60.45233774648592
60.568064421911835
61.11511302764725
60.928687416450394
60.71860242574537
60.206568040617825
60.74636445448326
60.456877012997865
60.14259920963323
59.90403764320797
60.606346586121184
60.274696995593395
60.41962017445595
59.6495899315974
60.82508115159843
60.09806633991886
60.01207052409232
60.080206994170275
60.2954707036796
60.195932776427796
59.38654051100083
59.816111484475314
59.884533063672365
59.95115010161738
59.733714170894594
59.37004055212674
59.83590587936432
59.42015181600894
59.695030143810776
59.30976829618779
59.30728730057577
59.459063484393745
59.58484324115172
58.96460700572537
59.14141102814653
58.95109542912761
59.05202021844835
59.12112342475741
58.7695722136692
59.19327264033182
59.099116303391575
58.29560743430659
59.52233555758834
58.70040095693832
58.56954705554216
58.76931556965179
59.37099261121391
58.49659507077583
58.787628523913305
58.47705595361208
58.52573630866299
58.73823089886621
58.31019801538613
58.124858851817905
58.492251174688384
58.839727817422975
58.23630532129808
58.651302929110585
58.5401114977381
58.6532736527072
57.91762803911611
58.00371046557571
58.615959156522116
57.764817931885965
58.26068974726754
58.380833476857966
58.205113728538535
57.87707060698403
58.06218374754265
57.626374101762224
58.735776634800125
57.95946411195305
58.488364385998786
58.083759884404365
57.758399361625905
58.09908027440769
57.84131495314579
57.8217926962277
57.32973726867789
57.60169374470719
57.729347247767414
57.797840531675796
57.48245353379883
57.81059884715518
58.00089969760029
57.54366669574642
58.3595436832369
57.44712005497632
57.307551475025456
57.391369543286245
57.649487368888614
57.32002915992807
57.61106715207796
57.54050543446002
57.82192432489955
57.38948062511028
57.290155839033
57.40201783527505
57.65274893360159
57.00901032089255
57.58928633790508
57.141276350281565
57.104375151537766
56.970014819737436
56.95000568133718
57.364183174417434
57.31903452660354
57.30228779681646
57.81745056839806
57.46868790006977
57.83964158544415
56.62261430439873
56.76696105776649
57.17145517551871
57.42196404029803
57.06673785218711
57.01872811476108
56.77497827782945
56.96150344676558
56.85469674563867
56.800530757769245
57.42459236595799
59.233403505133694
57.19547133970576
56.5021975616284
57.22761984783217
56.59004434666152
56.45704551646166
56.715696247334755
56.97254419707868
56.701660846052526
56.58338484845766
57.06354057081724
57.60685260906707
57.06699378886132
55.944903902520984
57.34584446172859
56.70805295855847
56.56120774840825
56.32182859916289
56.474184218089675
56.15378556351144
55.85788990678765
56.89616519487288
56.40611526721836
56.81156099911346
56.02455142397985
56.61017039063573
56.0831287945025
55.521203355784245
56.63526936230648
56.55020130870407
56.34675153133032
55.618154444135605
56.452074114369424
55.670648244492725
55.5766416574795
56.47844999759852
56.694839849657754
55.983166329279165
55.734884705992144
55.9837266946877
55.72955711273134
55.500154413875435
56.17002631117337
55.683610755675396
54.94202224491857
56.00970684305822
56.36983679589612
56.077163577746724
55.88635974876884
55.900658663628825
56.0154353347703
55.89437496050949
55.2453986151548
55.401687445236185
55.18540741398794
55.52590267276133
55.39082028730584
55.46233631502053
54.94124165805365
54.78672542018567
55.28937296855286
54.59448193791851
55.30845869995453
55.02672352777213
54.995430961885404
54.44523660595895
54.63588156647035
54.938952814331074
55.10780396268321
54.90184921111375
54.80194020684687
54.99342762545981
54.914343252865116
54.08811103892114
54.799444809926705
54.245838196220625
54.828553512864936
54.648343732826326
54.549833084437125
54.67853596160946
54.5534314689465
54.53279423505827
54.18371595647643
55.02740149107626
54.669011006635415
54.2141199730453
54.44627531563518
54.48857081541634
54.29968543347525
54.335095921426834
54.360958416875455
53.91902358453691
53.42623106811307
52.77279798157776
52.765083377502144
53.114241305672124
52.84858702518594
52.255703232021936
52.724670296973194
52.639136104492955
52.71841469775364
52.79242551443845
53.63523418418916
53.3456359246802
52.6006960172587
52.890068731465256
53.23200377939756
53.28941078065465
53.77200127428555
52.9964185170099
53.18318757252227
52.767335320703644
53.8010850513457
53.6686593225152
52.975423329627155
53.660727357464
53.93140336413119
53.936978341972
53.1886130239716
53.45694076367967
53.65540892790736
53.555584793305826
53.70158219357821
53.90022722966561
53.239805391593464
52.830893241429884
53.85854794522395
53.380212841179336
53.11553312295343
52.54111860752259
53.34044874164227
53.30701847712085
53.42301620462024
53.00640459149884
52.26357437239713
53.11439579788831
52.83529013028867
53.056784868225385
53.19903121346552
52.76701854956284
52.99172818563384
51.581011156900374
52.94347448498268
53.17261815452042
52.33397389436608
51.90696449376299
52.845730692775064
52.11931964367135
52.497172944473185
51.99052222956947
52.09477058088739
51.96117587402104
52.325188946407884
52.05662571876465
51.96755363723279
51.776439465678315
51.157900164988845
50.840928840136385
51.74106735685842
51.027896375969924
51.677257250396956
51.9848041355661
50.94729274223443
50.85153135851719
50.836963565972546
50.841331518606886
50.30757747238625
51.30049754798816
50.44521161653296
50.08029249998712
50.20503950348029
51.051319615440725
52.453921385461825
51.88398064454642
50.1897745676038
50.18634852593067
49.61061804789169
50.13496377539457
49.33279061688215
49.683004748123146
49.503426890481094
49.59424688504913
50.11346141661519
49.94286960868655
48.94826061728412
49.032059413242585
49.72660685512253
50.10106882119983
48.762964190276705
48.726285925522255
49.256491578926244
48.91589254284458
49.6041910811164
48.9866068278342
49.439373328408
48.70742152405329
49.74426318978587
48.67859308138741
48.73530996644308
49.261635908401345
51.529469358709
49.75737589525776
48.5569511142706
48.51846236846854
48.34276791631661
49.18454088175111
48.69434590236684
48.64942217703937
48.249846930933884
48.55215055727569
48.87769226022668
48.24913487409954
48.37158066328119
48.37101593626949
49.01025463047548
48.33698680601418
48.27477797696336
48.23480498911954
48.28394436850317
48.46168981411595
47.89728026888674
47.79760490502402
48.39916749489764
47.617070877220335
47.6878145454559
48.36189631845787
49.002246604837914
47.80078546395128
47.61506251841919
47.4460904448115
47.96812728317653
47.40444515735366
47.85427795128349
47.90687338500924
48.01939790775266
47.403948584636986
47.41973251568696
47.693848477333475
47.72643070119533
47.38606173618487
47.07269792212856
47.679557048598
47.50609614255033
47.5621464323816
47.01225781907778
47.411124103693695
47.09126052238525
46.87148776814731
46.959940630275355
47.440693599431725
46.65729275040536
46.42693236372733
46.98680322232184
46.51911641785681
46.849062691730694
48.044885360242056
49.16597660511587
47.27404366781314
46.50722486324104
46.755952316280194
46.961727892413116
46.152510108362776
46.464777269015556
46.292017291310195
46.2840181358747
46.358740179125036
46.53814001569881
46.50066083052227
46.393435942421455
46.12801196497831
45.971383279557905
46.249335637944256
46.44715825953089
45.935329265817415
46.28255924882564
45.54892158228216
46.31885555857962
45.900940740304065
45.65891129778122
45.61086198281009
45.970795235227946
46.06476103975124
46.259034411964514
46.25500243186423
48.11257509848399
45.97033388941445
45.98103928249972
45.67612701515232
45.52225458067006
46.544346943318445
47.82506144755672
46.46128295612303
45.64113453062508
45.57332117450373
45.233227090463586
45.37521742864559
45.43664996016377
45.06668485175645
45.610177435520484
45.23600150701582
45.40850289197222
45.40931750224672
44.97222115095667
45.26360856731196
44.911041688099736
44.32593621106425
45.607027240761944
46.76703000558045
47.82065475732823
45.30694276395398
45.28586307639323
44.65170970296303
44.67289027449757
45.34544981154531
44.4717359339579
44.95770905653734
45.0564191349249
44.55683491577214
43.929669185211594
44.81248268796486
44.78423273874615
44.894893769632276
45.11190752094963
46.85104203546775
46.90120368105358
44.51765322478039
44.2993792128475
44.33235857482813
44.50767312286497
44.21714893298775
44.142188879327925
44.45528758207368
44.361057719619055
44.09648377934472
44.35819622979106
43.25211013334517
44.115201006921225
44.18158258821281
43.884281227096274
43.810111182570196
44.00766214457612
43.706530930466634
44.2053298421982
43.63106767018
44.460720691489634
43.756268240138866
43.73251008685562
43.84335326139895
43.62682205800591
43.5345513656934
43.56549768399897
43.45440898712307
43.452237008532954
44.428129266152894
44.50112810085411
45.29325900925687
45.7798751739154
44.42628636722535
43.374663715339686
43.856003543065384
43.31659409558173
43.6265725821704
42.90397071398565
43.2789786689988
42.83890705743295
43.30448020191973
43.32465662421255
43.47373952964878
42.56004688786122
43.01630067339495
43.17956587226134
42.38309441169973
43.119132316896696
42.90233937294783
42.78206725874517
42.219357493976055
42.85795774224735
42.65916316687732
42.38131792514639
42.357158543826756
42.74765638231741
42.363856443913534
42.33286903239573
42.429896333211474
42.82094620066673
42.63124992263951
42.41969515867012
42.22472786050712
42.26996804834198
41.86077257847143
42.01003185594199
42.41445322781521
42.597288293077455
42.304208685816974
42.3237383848182
42.27393767227558
41.88454164671306
42.77864262908692
42.38357478234556
41.884056486324155
42.38830669240432
41.88496931797479
42.84399994592197
44.21782338738947
45.09058988829468
44.468957411679405
43.354952077736904
42.19040180273014
42.475817140233254
43.641493467457614
44.11305289294512
42.83728716253631
42.121130551228156
41.65593111801753
41.48976265546879
41.664876492695
41.49258638023745
41.30985213069357
41.52029513268366
41.38059890417491
41.47888173450643
41.43785358063319
41.64577550233742
41.33597047000425
41.10350505076683
41.40495026183413
41.59931833553325
41.04926495408746
41.085351981246056
40.945738867648025
41.14891256187106
41.05462371167172
41.175888963568454
40.572541571070566
40.90091256409649
40.82982277139463
40.7079665731194
40.90850655367556
41.156118475298264
40.81091683253926
40.75074689985619
40.66591702068952
40.79013223727046
40.596900043443945
40.91718700273338
40.70021228536039
40.63114335117124
40.45949460107399
40.79106788327101
41.625973301736245
43.675881116374555
41.40288410496505
40.41721563110874
40.42232059514158
40.63906853670935
40.691821303000516
41.42735788135371
42.02485534600421
41.14147037324352
40.61354628293025
42.30608960351903
40.87427207765599
40.45649753943966
39.81625206212753
40.20195689826449
40.39829932839231
39.82503626779621
40.179957069881446
39.95104781756896
39.928776132791505
39.749363217285364
40.111887794185485
40.1789984659498
39.5589786675284
40.124808063399584
39.79978827175989
39.34834180947393
39.574333544036335
39.676632225055215
39.5694454804593
39.85758625534581
40.0163458509949
39.630120233155864
39.31841651285283
39.22888503735307
39.36337096954027
39.4389208713102
39.39736754303045
39.38870852966473
39.503393006146574
39.902277792273665
39.33320847290086
39.091932451620266
38.9531127907479
39.88452504456527
38.80412398583195
38.73637112597109
38.809561548432875
39.383390455712764
39.285749671700614
39.40614141591985
39.74196336167675
41.563759740472555
40.94727296977052
40.32743519987817
40.248007342576464
39.2998953960694
39.11648440318513
39.13760184425763
38.46592505313117
38.78554423151421
38.53649235283173
38.94374539520778
38.42097564169805
38.41044869926099
38.79783534966408
38.79796962713815
38.58355892504863
38.29780265153583
39.12757899415539
38.700274670925864
38.29067338621099
38.35099351215633
38.31404581867502
38.54334386043681
38.143836587577944
38.689937058193586
38.45597503715337
38.39098654541245
39.233637957629746
39.37872036386117
40.58898392919437
40.36830515763584
40.906512109259964
40.61213231536255
39.9443664099412
39.047115156702986
38.113478520233016
38.55803863829019
38.65236024644031
38.33600560532724
38.13045492434234
38.004271775186155
37.55427046775055
38.02124358272315
38.00316844669182
38.37650103847061
38.34815389623404
37.99720897704656
37.55525383492763
37.7147213899516
37.26966959123505
37.99876469319608
37.26634323998729
37.90062450877766
37.98026439673633
37.56323245359479
37.4639607359757
37.41502344172292
36.81714107241925
37.95686931256361
37.58495412641822
37.16070826808268
37.11856693599563
37.45009993373901
37.14747230900399
37.13359890088281
37.117768950691755
37.457509578511456
36.865642089385666
38.08522133215671
37.374849306887754
37.535847923540445
38.014246225388845
39.03210332348561
39.991449523620304
39.05872175515107
38.11067846973056
37.25188796566459
37.090013234426245
36.808506050375016
36.92301803739242
36.689915912873786
36.58150800863095
36.26199729432553
36.69733135736189
36.678308827745084
36.79242937797572
36.601212744005366
36.93486136000189
36.47842768338951
36.68083852477094
37.03887507510675
36.0616738525934
36.1343100541477
36.22355613814473
36.074663177452464
36.33755032612437
36.124330988052265
36.45872101387461
36.369290019294915
36.10962919026938
35.772401522048916
36.224993973595325
36.17340120878456
35.73244128057651
36.29871191806373
36.352712652768815
35.926965266719606
35.951275522344595
36.667987165020115
37.49104022647909
37.89337284030941
37.70860439866574
36.82594047105078
36.01313225783838
35.606065934556696
35.9115338470169
35.50933385478787
35.56438698410346
