90.23891223936751
91.11898238532383
91.19610185768866
90.92704457705234
90.37180883834927
90.37158457780234
90.98959833883204
90.10330296050202
90.47833510570216
90.20236681261896
90.76330474991975
90.58002895024995
90.08791707029029
89.58759313952358
89.98292253132585
90.21630458445833
87.08374948483316
87.25224025087091
86.75657884022917
87.2488466440699
88.03202160664827
86.54978783189603
86.88173479504353
86.99209565301027
86.8476654931037
87.15498538136215
86.77688480069398
86.39553090129107
86.41194598235117
86.06503426958035
85.82700147499494
85.69219523855163
85.94911872208367
86.08263803617835
85.78870465159405
86.2220125508768
85.59473597914118
85.19343431992174
85.08254098989775
86.11049062623691
85.41045279316143
85.43239578355305
84.99496161804387
85.29760602647696
85.27666084154174
85.29589095087883
85.16079477108393
85.30189075948425
85.23281469051712
84.54558934959789
85.06925386163616
84.56333316838351
85.26591293909918
84.65982242392286
84.24623076135558
84.34004326820278
83.88879772936279
84.35849839753747
83.54572457668098
84.02989887852918
83.79309537157846
83.85482526133866
83.21261273735948
83.63362100172033
84.08147998450288
83.80972551657923
83.82765657131439
83.79193811621964
83.22993424888715
83.00247804418434
83.11405737607565
83.02601822460444
83.128548967156
83.44805671666305
83.43749245602206
82.63427543027524
82.9491086532685
83.00358366047487
82.8217927141762
82.27418715202853
82.45848240922335
82.71278398396241
82.52435698164817
82.71925392065516
78.37347399888806
79.33505045433
78.88857158425336
78.90786318562492
78.92116982406002
78.60421544226047
79.18222554467027
78.89374384104472
78.5190512259037
78.33226274422319
78.98706748074916
78.51157712089953
77.9766296315874
76.73882126209662
76.80860024808791
76.69965776655059
76.9227367514476
76.7671849273715
76.95931328347822
76.69301445076199
76.87091462243916
76.6980499025208
76.60037245138334
76.60520664860107
76.84098588663171
76.26034478160321
76.12718995752168
76.51667215067175
76.76178932794541
76.16921457662218
75.87028023560885
73.5608859377131
73.96847406269374
73.76873832638383
73.90418762829225
73.66578203834315
73.47189163787196
73.59039068660626
73.19677682360854
73.69301104683035
73.54309493489181
73.24999149714021
73.23001081560325
72.90673576997234
73.03858531182615
72.80040708815768
72.689577460151
72.36496219429905
72.62527066884617
72.81434153909687
72.49147484653021
72.38393435561423
72.39704160385214
71.94073055089116
72.41812924216369
71.89908446676553
72.1728410363132
72.44826948603101
72.55904642129907
72.25685957581072
71.81525042519533
71.76367208706378
71.81707965216255
71.6821414229645
71.1657723674184
72.26942650330069
67.59564797847213
67.52293659651932
67.69001693038024
67.46601662343055
68.05194419809128
68.2772236372619
67.68647386727862
67.14341933522407
67.34696045529738
66.93085660479146
67.88173674645684
67.41725742020849
67.15499756345412
66.94207351372644
67.58924456589702
67.3343698572452
66.86911979749264
66.88417114947498
66.64067724804576
66.7247179897917
67.1054179274529
66.74747987940094
67.00204540493978
67.20941985336188
66.58337993033783
66.35494652892046
66.9205671667008
66.01626081352293
66.58114700228022
66.66668094161551
67.08339828332197
66.11664395973693
66.00318625985847
66.17186957946183
63.672461496261164
63.02170765725374
63.870231311974365
63.27709223006894
63.95059431581394
63.30369700214206
63.12646834044202
63.34848599430843
62.96776469582038
62.81253515384975
63.04344241915296
62.80621547143096
62.3837407422143
63.00659391872314
62.950510880257546
62.645063119929006
62.73161256209295
62.62883640680285
62.6810934413617
62.8334814760673
62.527883987262925
59.37004055212674
59.83590587936432
59.42015181600894
59.695030143810776
59.30976829618779
59.30728730057577
59.459063484393745
59.58484324115172
58.96460700572537
59.14141102814653
58.95109542912761
59.05202021844835
59.12112342475741
58.7695722136692
59.19327264033182
59.099116303391575
58.29560743430659
59.52233555758834
58.70040095693832
58.56954705554216
58.76931556965179
59.37099261121391
48.249846930933884
48.55215055727569
48.87769226022668
48.24913487409954
48.37158066328119
48.37101593626949
49.01025463047548
48.33698680601418
48.27477797696336
48.23480498911954
48.28394436850317
48.46168981411595
47.89728026888674
47.79760490502402
48.39916749489764
47.617070877220335
47.6878145454559
48.36189631845787
49.002246604837914
47.80078546395128
47.61506251841919
47.4460904448115
47.96812728317653
47.40444515735366
47.85427795128349
47.90687338500924
48.01939790775266
47.403948584636986
46.961727892413116
46.152510108362776
46.464777269015556
46.292017291310195
46.2840181358747
46.358740179125036
46.53814001569881
46.50066083052227
46.393435942421455
46.12801196497831
45.971383279557905
46.249335637944256
46.44715825953089
45.935329265817415
46.28255924882564
45.54892158228216
46.31885555857962
45.900940740304065
45.65891129778122
45.61086198281009
45.37521742864559
45.43664996016377
45.06668485175645
45.610177435520484
45.23600150701582
45.40850289197222
45.40931750224672
44.97222115095667
44.45528758207368
44.361057719619055
44.09648377934472
44.35819622979106
43.25211013334517
44.115201006921225
44.18158258821281
43.884281227096274
43.810111182570196
44.00766214457612
43.706530930466634
42.56004688786122
43.01630067339495
43.17956587226134
42.38309441169973
43.119132316896696
42.90233937294783
42.78206725874517
42.219357493976055
42.85795774224735
42.65916316687732
42.38131792514639
42.357158543826756
42.74765638231741
42.363856443913534
42.33286903239573
42.429896333211474
42.82094620066673
42.63124992263951
42.41969515867012
42.22472786050712
42.26996804834198
41.86077257847143
42.01003185594199
42.41445322781521
42.597288293077455
42.304208685816974
42.3237383848182
41.04926495408746
41.085351981246056
40.945738867648025
41.14891256187106
41.05462371167172
41.175888963568454
40.572541571070566
40.90091256409649
40.82982277139463
40.7079665731194
40.90850655367556
41.156118475298264
40.81091683253926
40.75074689985619
40.66591702068952
40.79013223727046
40.596900043443945
40.91718700273338
40.70021228536039
39.749363217285364
40.111887794185485
40.1789984659498
39.5589786675284
40.124808063399584
39.79978827175989
39.34834180947393
39.574333544036335
39.676632225055215
39.5694454804593
39.85758625534581
40.0163458509949
39.630120233155864
39.31841651285283
39.22888503735307
39.36337096954027
39.4389208713102
39.39736754303045
39.38870852966473
39.503393006146574
39.902277792273665
39.33320847290086
39.091932451620266
38.9531127907479
39.88452504456527
38.80412398583195
38.73637112597109
38.809561548432875
