785.9461048769999,90.23891223936751
786.246104877,91.11898238532383
786.5461048770001,91.19610185768866
786.846104877,90.92704457705234
787.146104877,90.37180883834927
787.4461048769999,90.37158457780234
787.746104877,90.98959833883204
788.0461048770001,90.10330296050202
788.346104877,90.47833510570216
788.646104877,90.20236681261896
788.9461048769999,90.76330474991975
789.246104877,90.58002895024995
789.5461048770001,90.08791707029029
789.846104877,89.58759313952358
790.146104877,89.98292253132585
790.4461048769999,90.21630458445833
809.646104877,87.08374948483316
809.9461048769999,87.25224025087091
810.246104877,86.75657884022917
810.5461048770001,87.2488466440699
810.846104877,88.03202160664827
811.146104877,86.54978783189603
811.4461048769999,86.88173479504353
811.746104877,86.99209565301027
812.0461048770001,86.8476654931037
812.346104877,87.15498538136215
812.646104877,86.77688480069398
812.9461048769999,86.39553090129107
813.246104877,86.41194598235117
817.146104877,86.06503426958035
817.4461048769999,85.82700147499494
817.746104877,85.69219523855163
818.0461048770001,85.94911872208367
818.346104877,86.08263803617835
818.646104877,85.78870465159405
818.9461048769999,86.2220125508768
819.246104877,85.59473597914118
819.5461048770001,85.19343431992174
819.846104877,85.08254098989775
820.146104877,86.11049062623691
820.4461048769999,85.41045279316143
820.746104877,85.43239578355305
821.0461048770001,84.99496161804387
821.346104877,85.29760602647696
821.646104877,85.27666084154174
821.9461048769999,85.29589095087883
822.246104877,85.16079477108393
822.5461048770001,85.30189075948425
822.846104877,85.23281469051712
823.146104877,84.54558934959789
823.4461048769999,85.06925386163616
823.746104877,84.56333316838351
824.0461048770001,85.26591293909918
824.346104877,84.65982242392286
828.5461048770001,84.24623076135558
828.846104877,84.34004326820278
829.146104877,83.88879772936279
829.4461048769999,84.35849839753747
829.746104877,83.54572457668098
830.0461048770001,84.02989887852918
830.346104877,83.79309537157846
830.646104877,83.85482526133866
830.9461048769999,83.21261273735948
831.246104877,83.63362100172033
831.5461048770001,84.08147998450288
831.846104877,83.80972551657923
832.146104877,83.82765657131439
832.4461048769999,83.79193811621964
832.746104877,83.22993424888715
833.0461048770001,83.00247804418434
833.346104877,83.11405737607565
833.646104877,83.02601822460444
833.9461048769999,83.128548967156
834.246104877,83.44805671666305
834.5461048770001,83.43749245602206
836.0461048770001,82.63427543027524
836.346104877,82.9491086532685
836.646104877,83.00358366047487
836.9461048769999,82.8217927141762
837.246104877,82.27418715202853
837.5461048770001,82.45848240922335
837.846104877,82.71278398396241
838.146104877,82.52435698164817
838.4461048769999,82.71925392065516
860.346104877,78.37347399888806
860.646104877,79.33505045433
860.9461048769999,78.88857158425336
861.246104877,78.90786318562492
861.5461048770001,78.92116982406002
861.846104877,78.60421544226047
862.146104877,79.18222554467027
862.4461048769999,78.89374384104472
862.746104877,78.5190512259037
863.0461048770001,78.33226274422319
863.346104877,78.98706748074916
863.646104877,78.51157712089953
863.9461048769999,77.9766296315874
872.346104877,76.73882126209662
872.646104877,76.80860024808791
872.9461048769999,76.69965776655059
873.246104877,76.9227367514476
873.5461048770001,76.7671849273715
873.846104877,76.95931328347822
874.146104877,76.69301445076199
874.4461048769999,76.87091462243916
874.746104877,76.6980499025208
875.0461048770001,76.60037245138334
875.346104877,76.60520664860107
875.646104877,76.84098588663171
875.9461048769999,76.26034478160321
876.246104877,76.12718995752168
876.5461048770001,76.51667215067175
876.846104877,76.76178932794541
877.146104877,76.16921457662218
877.4461048769999,75.87028023560885
892.146104877,73.5608859377131
892.4461048769999,73.96847406269374
892.746104877,73.76873832638383
893.0461048770001,73.90418762829225
893.346104877,73.66578203834315
893.646104877,73.47189163787196
893.9461048769999,73.59039068660626
894.246104877,73.19677682360854
894.5461048770001,73.69301104683035
894.846104877,73.54309493489181
895.146104877,73.24999149714021
895.4461048769999,73.23001081560325
895.746104877,72.90673576997234
898.4461048769999,73.03858531182615
898.746104877,72.80040708815768
899.0461048770001,72.689577460151
899.346104877,72.36496219429905
899.646104877,72.62527066884617
899.9461048769999,72.81434153909687
900.246104877,72.49147484653021
900.5461048770001,72.38393435561423
900.846104877,72.39704160385214
901.146104877,71.94073055089116
901.4461048769999,72.41812924216369
901.746104877,71.89908446676553
902.0461048770001,72.1728410363132
902.346104877,72.44826948603101
902.646104877,72.55904642129907
902.9461048769999,72.25685957581072
903.246104877,71.81525042519533
903.5461048770001,71.76367208706378
903.846104877,71.81707965216255
904.146104877,71.6821414229645
904.4461048769999,71.1657723674184
904.746104877,72.26942650330069
929.646104877,67.59564797847213
929.9461048769999,67.52293659651932
930.246104877,67.69001693038024
930.5461048770001,67.46601662343055
930.846104877,68.05194419809128
931.146104877,68.2772236372619
931.4461048769999,67.68647386727862
931.746104877,67.14341933522407
932.0461048770001,67.34696045529738
932.346104877,66.93085660479146
932.646104877,67.88173674645684
932.9461048769999,67.41725742020849
933.246104877,67.15499756345412
933.5461048770001,66.94207351372644
933.846104877,67.58924456589702
934.146104877,67.3343698572452
934.4461048769999,66.86911979749264
934.746104877,66.88417114947498
935.0461048770001,66.64067724804576
935.346104877,66.7247179897917
935.646104877,67.1054179274529
935.9461048769999,66.74747987940094
936.246104877,67.00204540493978
936.5461048770001,67.20941985336188
936.846104877,66.58337993033783
937.146104877,66.35494652892046
937.4461048769999,66.9205671667008
937.746104877,66.01626081352293
938.0461048770001,66.58114700228022
938.346104877,66.66668094161551
938.646104877,67.08339828332197
938.9461048769999,66.11664395973693
939.246104877,66.00318625985847
939.5461048770001,66.17186957946183
958.146104877,63.672461496261164
958.4461048769999,63.02170765725374
958.746104877,63.870231311974365
959.0461048770001,63.27709223006894
959.346104877,63.95059431581394
959.646104877,63.30369700214206
959.9461048769999,63.12646834044202
960.246104877,63.34848599430843
960.5461048770001,62.96776469582038
960.846104877,62.81253515384975
961.146104877,63.04344241915296
961.4461048769999,62.80621547143096
961.746104877,62.3837407422143
962.0461048770001,63.00659391872314
962.346104877,62.950510880257546
962.646104877,62.645063119929006
962.9461048769999,62.73161256209295
963.246104877,62.62883640680285
963.5461048770001,62.6810934413617
963.846104877,62.8334814760673
964.146104877,62.527883987262925
985.146104877,59.37004055212674
985.4461048769999,59.83590587936432
985.746104877,59.42015181600894
986.0461048770001,59.695030143810776
986.346104877,59.30976829618779
986.646104877,59.30728730057577
986.9461048769999,59.459063484393745
987.246104877,59.58484324115172
987.5461048770001,58.96460700572537
987.846104877,59.14141102814653
988.146104877,58.95109542912761
988.4461048769999,59.05202021844835
988.746104877,59.12112342475741
989.0461048770001,58.7695722136692
989.346104877,59.19327264033182
989.646104877,59.099116303391575
989.9461048769999,58.29560743430659
990.246104877,59.52233555758834
990.5461048770001,58.70040095693832
990.846104877,58.56954705554216
991.146104877,58.76931556965179
991.4461048769999,59.37099261121391
1076.646104877,48.249846930933884
1076.946104877,48.55215055727569
1077.2461048769999,48.87769226022668
1077.546104877,48.24913487409954
1077.846104877,48.37158066328119
1078.146104877,48.37101593626949
1078.446104877,49.01025463047548
1078.7461048769999,48.33698680601418
1079.046104877,48.27477797696336
1079.346104877,48.23480498911954
1079.646104877,48.28394436850317
1079.946104877,48.46168981411595
1080.2461048769999,47.89728026888674
1080.546104877,47.79760490502402
1080.846104877,48.39916749489764
1081.146104877,47.617070877220335
1081.446104877,47.6878145454559
1081.7461048769999,48.36189631845787
1082.046104877,49.002246604837914
1082.346104877,47.80078546395128
1082.646104877,47.61506251841919
1082.946104877,47.4460904448115
1083.2461048769999,47.96812728317653
1083.546104877,47.40444515735366
1083.846104877,47.85427795128349
1084.146104877,47.90687338500924
1084.446104877,48.01939790775266
1084.7461048769999,47.403948584636986
1092.2461048769999,46.961727892413116
1092.546104877,46.152510108362776
1092.846104877,46.464777269015556
1093.146104877,46.292017291310195
1093.446104877,46.2840181358747
1093.7461048769999,46.358740179125036
1094.046104877,46.53814001569881
1094.346104877,46.50066083052227
1094.646104877,46.393435942421455
1094.946104877,46.12801196497831
1095.2461048769999,45.971383279557905
1095.546104877,46.249335637944256
1095.846104877,46.44715825953089
1096.146104877,45.935329265817415
1096.446104877,46.28255924882564
1096.7461048769999,45.54892158228216
1097.046104877,46.31885555857962
1097.346104877,45.900940740304065
1097.646104877,45.65891129778122
1097.946104877,45.61086198281009
1102.7461048769999,45.37521742864559
1103.046104877,45.43664996016377
1103.346104877,45.06668485175645
1103.646104877,45.610177435520484
1103.946104877,45.23600150701582
1104.2461048769999,45.40850289197222
1104.546104877,45.40931750224672
1104.846104877,44.97222115095667
1113.546104877,44.45528758207368
1113.846104877,44.361057719619055
1114.146104877,44.09648377934472
1114.446104877,44.35819622979106
1114.7461048769999,43.25211013334517
1115.046104877,44.115201006921225
1115.346104877,44.18158258821281
1115.646104877,43.884281227096274
1115.946104877,43.810111182570196
1116.2461048769999,44.00766214457612
1116.546104877,43.706530930466634
1124.646104877,42.56004688786122
1124.946104877,43.01630067339495
1125.2461048769999,43.17956587226134
1125.546104877,42.38309441169973
1125.846104877,43.119132316896696
1126.146104877,42.90233937294783
1126.446104877,42.78206725874517
1126.7461048769999,42.219357493976055
1127.046104877,42.85795774224735
1127.346104877,42.65916316687732
1127.646104877,42.38131792514639
1127.946104877,42.357158543826756
1128.2461048769999,42.74765638231741
1128.546104877,42.363856443913534
1128.846104877,42.33286903239573
1129.146104877,42.429896333211474
1129.446104877,42.82094620066673
1129.7461048769999,42.63124992263951
1130.046104877,42.41969515867012
1130.346104877,42.22472786050712
1130.646104877,42.26996804834198
1130.946104877,41.86077257847143
1131.2461048769999,42.01003185594199
1131.546104877,42.41445322781521
1131.846104877,42.597288293077455
1132.146104877,42.304208685816974
1132.446104877,42.3237383848182
1142.346104877,41.04926495408746
1142.646104877,41.085351981246056
1142.946104877,40.945738867648025
1143.2461048769999,41.14891256187106
1143.546104877,41.05462371167172
1143.846104877,41.175888963568454
1144.146104877,40.572541571070566
1144.446104877,40.90091256409649
1144.7461048769999,40.82982277139463
1145.046104877,40.7079665731194
1145.346104877,40.90850655367556
1145.646104877,41.156118475298264
1145.946104877,40.81091683253926
1146.2461048769999,40.75074689985619
1146.546104877,40.66591702068952
1146.846104877,40.79013223727046
1147.146104877,40.596900043443945
1147.446104877,40.91718700273338
1147.7461048769999,40.70021228536039
1155.2461048769999,39.749363217285364
1155.546104877,40.111887794185485
1155.846104877,40.1789984659498
1156.146104877,39.5589786675284
1156.446104877,40.124808063399584
1156.7461048769999,39.79978827175989
1157.046104877,39.34834180947393
1157.346104877,39.574333544036335
1157.646104877,39.676632225055215
1157.946104877,39.5694454804593
1158.2461048769999,39.85758625534581
1158.546104877,40.0163458509949
1158.846104877,39.630120233155864
1159.146104877,39.31841651285283
1159.446104877,39.22888503735307
1159.7461048769999,39.36337096954027
1160.046104877,39.4389208713102
1160.346104877,39.39736754303045
1160.646104877,39.38870852966473
1160.946104877,39.503393006146574
1161.2461048769999,39.902277792273665
1161.546104877,39.33320847290086
1161.846104877,39.091932451620266
1162.146104877,38.9531127907479
1162.446104877,39.88452504456527
1162.7461048769999,38.80412398583195
1163.046104877,38.73637112597109
1163.346104877,38.809561548432875
