785.9461048769999,30.18733058269687
786.246104877,29.825541832842795
786.5461048770001,33.30289599990081
786.846104877,30.88666575217481
787.146104877,30.8489913830543
787.4461048769999,31.478897930352325
787.746104877,30.911594798121108
788.0461048770001,31.865940074075276
788.346104877,30.841064188615587
788.646104877,29.99910232430508
788.9461048769999,30.15255254837104
789.246104877,29.80272627687866
789.5461048770001,30.241186372976625
789.846104877,29.609964917426673
790.146104877,28.9304732324785
790.4461048769999,29.021505258618156
809.646104877,27.1159846994538
809.9461048769999,27.396562622782216
810.246104877,28.035777177882583
810.5461048770001,28.567471286449894
810.846104877,32.17974659702192
811.146104877,27.92563364625339
811.4461048769999,26.96204226763645
811.746104877,26.935710416720354
812.0461048770001,27.07387911400856
812.346104877,32.02064387041589
812.646104877,27.37753427448995
812.9461048769999,27.438581316657473
813.246104877,30.03736406970989
817.146104877,28.341812204608857
817.4461048769999,26.431681635153247
817.746104877,26.412051816327597
818.0461048770001,25.937786699149466
818.346104877,25.60938387932789
818.646104877,28.010662689992312
818.9461048769999,26.1229653741608
819.246104877,25.030656998172336
819.5461048770001,25.128889526427997
819.846104877,25.839261578723914
820.146104877,27.162437078098915
820.4461048769999,24.96025457595638
820.746104877,25.428908448794772
821.0461048770001,25.73673662004206
821.346104877,25.10138032898013
821.646104877,26.84331133037033
821.9461048769999,25.19025285701298
822.246104877,26.19572962612898
822.5461048770001,25.843568635380635
822.846104877,25.828920901680807
823.146104877,26.005405197007196
823.4461048769999,25.437125363757424
823.746104877,25.014241988129207
824.0461048770001,25.383399016790463
824.346104877,26.261191001823757
828.5461048770001,24.854867251175033
828.846104877,24.997851653609555
829.146104877,25.171737308407835
829.4461048769999,24.93607248914611
829.746104877,24.763158470111858
830.0461048770001,24.960258036348637
830.346104877,24.708535514295825
830.646104877,25.508214933513457
830.9461048769999,25.27325826840444
831.246104877,24.715483060190895
831.5461048770001,24.554932591769948
831.846104877,24.039954126254308
832.146104877,24.371686640921343
832.4461048769999,24.454704156438023
832.746104877,24.31773007043627
833.0461048770001,24.52735681828604
833.346104877,23.92988716195417
833.646104877,23.709149521043372
833.9461048769999,24.236220015471066
834.246104877,24.201603879982372
834.5461048770001,24.45931303754266
836.0461048770001,24.6881744111465
836.346104877,24.584657281715426
836.646104877,24.05641460027854
836.9461048769999,24.396732170347256
837.246104877,24.77118322182673
837.5461048770001,24.719643952102825
837.846104877,25.03614739756633
838.146104877,24.64872054440908
838.4461048769999,23.8813772584124
860.346104877,21.629750031533057
860.646104877,22.170997712759508
860.9461048769999,22.348640556506318
861.246104877,22.024735274414656
861.5461048770001,22.774801172513403
861.846104877,22.452231206366083
862.146104877,22.6102253787775
862.4461048769999,22.199368616431947
862.746104877,22.399026915616634
863.0461048770001,21.856802355401875
863.346104877,22.572984847299402
863.646104877,21.74204354433547
863.9461048769999,21.899664633671343
872.346104877,21.70253160235316
872.646104877,21.47699315527956
872.9461048769999,21.168550022356772
873.246104877,21.88189241384502
873.5461048770001,21.45476680757848
873.846104877,21.40952150913051
874.146104877,21.323305309330564
874.4461048769999,21.62489112182398
874.746104877,21.423253663519912
875.0461048770001,21.565690343695714
875.346104877,21.542415211000616
875.646104877,21.621255199773096
875.9461048769999,21.60844114639799
876.246104877,21.219983414720357
876.5461048770001,21.31941668430224
876.846104877,20.979907911049775
877.146104877,20.779166120907934
877.4461048769999,20.86396746071994
892.146104877,20.42880687321947
892.4461048769999,19.458664412474494
892.746104877,19.652302377327704
893.0461048770001,19.639279419024266
893.346104877,19.60122800157138
893.646104877,19.631515605903147
893.9461048769999,19.66156466220365
894.246104877,19.867405596229872
894.5461048770001,19.333040394221086
894.846104877,19.945689915109977
895.146104877,19.274924472827415
895.4461048769999,19.42924971402131
895.746104877,20.625301452328127
898.4461048769999,18.785987207709187
898.746104877,19.467381555882618
899.0461048770001,19.17361330011077
899.346104877,18.687511890435008
899.646104877,18.679157235273653
899.9461048769999,19.381774945348297
900.246104877,19.25999979307064
900.5461048770001,18.850671862214185
900.846104877,19.133186965241947
901.146104877,18.889524974608058
901.4461048769999,19.207133511586676
901.746104877,18.048430863541576
902.0461048770001,18.994985405406833
902.346104877,18.931659862989587
902.646104877,18.816795395866826
902.9461048769999,18.60140250368425
903.246104877,18.58906610262556
903.5461048770001,19.16228416887704
903.846104877,18.909605901459962
904.146104877,18.956144974384642
904.4461048769999,18.904752885273002
904.746104877,19.112504966048068
929.646104877,16.857456289008432
929.9461048769999,17.51654013541216
930.246104877,17.353535795526096
930.5461048770001,17.268451492851433
930.846104877,19.782870740950894
931.146104877,17.27097965228163
931.4461048769999,16.47179852638694
931.746104877,17.16841192189563
932.0461048770001,16.71398704770936
932.346104877,17.150850506959294
932.646104877,18.79897420555764
932.9461048769999,18.51946031860092
933.246104877,16.324319696559634
933.5461048770001,16.71651878345022
933.846104877,16.553594657481597
934.146104877,16.65182474479259
934.4461048769999,16.942800213987674
934.746104877,20.083887029407258
935.0461048770001,16.627245758534695
935.346104877,16.384863091256808
935.646104877,16.662683182271333
935.9461048769999,16.248108074550682
936.246104877,16.997231721636734
936.5461048770001,19.865065643499694
936.846104877,17.492117801778978
937.146104877,16.221300413475895
937.4461048769999,16.203884589681664
937.746104877,15.851570956809853
938.0461048770001,17.084369444249624
938.346104877,17.996542848319738
938.646104877,19.723042072748
938.9461048769999,15.773046668156045
939.246104877,16.214212054008406
939.5461048770001,16.06283331362682
958.146104877,14.675641629723298
958.4461048769999,14.734899378438346
958.746104877,15.064524769243956
959.0461048770001,17.566030584840696
959.346104877,16.478307455813482
959.646104877,15.978458664931992
959.9461048769999,13.985181819435867
960.246104877,14.261298845359232
960.5461048770001,14.635798895614117
960.846104877,14.495975537130656
961.146104877,14.498027538239992
961.4461048769999,14.762955114922812
961.746104877,14.820714472880594
962.0461048770001,14.54402657415007
962.346104877,14.122458633751846
962.646104877,14.318956715689811
962.9461048769999,15.678115403016992
963.246104877,15.379114791567114
963.5461048770001,14.1763801875596
963.846104877,14.128062644635113
964.146104877,14.205583561215697
985.146104877,14.342620973432945
985.4461048769999,14.18681505089599
985.746104877,13.544692504652128
986.0461048770001,13.746573660052208
986.346104877,15.248896950284042
986.646104877,13.819540242671444
986.9461048769999,13.350737202368947
987.246104877,14.453910756658912
987.5461048770001,13.778924236294
987.846104877,13.85679507029202
988.146104877,13.638194174734192
988.4461048769999,13.994108244205457
988.746104877,14.637824363407587
989.0461048770001,13.7469875668919
989.346104877,13.847383357773248
989.646104877,13.702364279960605
989.9461048769999,15.082411046472803
990.246104877,14.033788639632387
990.5461048770001,14.302390971795852
990.846104877,13.43925889708124
991.146104877,13.17503380495298
991.4461048769999,15.264175597009848
1076.646104877,12.048712349112124
1076.946104877,15.62029871750991
1077.2461048769999,17.395800644837735
1077.546104877,11.951732790022712
1077.846104877,11.560552034453186
1078.146104877,13.00147329442348
1078.446104877,18.0610117497228
1078.7461048769999,11.457638707717658
1079.046104877,11.011504288132963
1079.346104877,12.256307678292341
1079.646104877,18.459301128112994
1079.946104877,11.92539668962651
1080.2461048769999,11.318726258295435
1080.546104877,12.366984300583454
1080.846104877,17.469616020068887
1081.146104877,14.695135868840026
1081.446104877,11.373538512157781
1081.7461048769999,12.36810265027112
1082.046104877,15.970567719604812
1082.346104877,12.48403515266562
1082.646104877,11.404445292485535
1082.946104877,11.864897960348998
1083.2461048769999,15.837478000213732
1083.546104877,11.845931659587421
1083.846104877,11.24008695363537
1084.146104877,11.823575320960325
1084.446104877,15.010722355370218
1084.7461048769999,11.834803578206051
1092.2461048769999,11.013401481137024
1092.546104877,10.791348080207008
1092.846104877,11.433111265507756
1093.146104877,10.94958857887669
1093.446104877,10.711410788300782
1093.7461048769999,11.216681033568976
1094.046104877,11.023581790919584
1094.346104877,10.937761026438519
1094.646104877,11.301312969695328
1094.946104877,10.324212121014796
1095.2461048769999,11.01795703083965
1095.546104877,10.532063763037156
1095.846104877,10.463911401475517
1096.146104877,10.738521310089128
1096.446104877,11.05370790039531
1096.7461048769999,11.118028609228164
1097.046104877,10.584200332688361
1097.346104877,10.746010118009872
1097.646104877,10.744625423660269
1097.946104877,11.189845902585112
1102.7461048769999,11.780538049185987
1103.046104877,11.102511518268845
1103.346104877,11.431306943222147
1103.646104877,10.869904943729951
1103.946104877,11.352778511111447
1104.2461048769999,10.664731016663413
1104.546104877,11.240613615690854
1104.846104877,10.776807964779415
1113.546104877,10.16167329444102
1113.846104877,10.407557051086188
1114.146104877,11.043762875961214
1114.446104877,10.788571053535792
1114.7461048769999,11.076031005228026
1115.046104877,10.81951815697038
1115.346104877,10.370376161649977
1115.646104877,10.143074224431388
1115.946104877,10.325609136818601
1116.2461048769999,10.55074774003556
1116.546104877,10.953366800927794
1124.646104877,10.410177760253292
1124.946104877,9.886699550336647
1125.2461048769999,10.372921563195924
1125.546104877,10.034954530125766
1125.846104877,10.93658013585463
1126.146104877,9.66844702233641
1126.446104877,9.491840127050786
1126.7461048769999,9.74994533446906
1127.046104877,10.117016746022392
1127.346104877,10.067790303080029
1127.646104877,10.021713881082167
1127.946104877,9.661781321019632
1128.2461048769999,9.316226094901694
1128.546104877,9.880386487218653
1128.846104877,10.16261067102522
1129.146104877,9.877801236571946
1129.446104877,9.46034860902912
1129.7461048769999,10.466659671607268
1130.046104877,9.890910471638605
1130.346104877,9.220543752086929
1130.646104877,10.492745591852689
1130.946104877,10.319738992244094
1131.2461048769999,10.799842614694242
1131.546104877,10.349998489747904
1131.846104877,10.684791849466361
1132.146104877,10.090066909293013
1132.446104877,11.727818393815543
1142.346104877,9.53970665366905
1142.646104877,9.572824793229792
1142.946104877,9.934731573442505
1143.2461048769999,10.282262424464056
1143.546104877,10.67332139522092
1143.846104877,9.340885440487511
1144.146104877,9.811451414686916
1144.446104877,10.76215466145481
1144.7461048769999,10.085275842717015
1145.046104877,9.966499822702222
1145.346104877,10.251201293614947
1145.646104877,10.102421116211044
1145.946104877,10.997553516147109
1146.2461048769999,10.307488937097023
1146.546104877,11.036953870184007
1146.846104877,11.516553496084907
1147.146104877,10.459122216562774
1147.446104877,11.563654708260154
1147.7461048769999,10.761135506506093
1155.2461048769999,10.344475966472451
1155.546104877,12.247619246273594
1155.846104877,10.291299650212618
1156.146104877,10.371540301098774
1156.446104877,11.195279270129934
1156.7461048769999,10.20728383490452
1157.046104877,10.965113487156842
1157.346104877,10.657567453924173
1157.646104877,10.078852770262166
1157.946104877,11.411704353141753
1158.2461048769999,9.337376797266671
1158.546104877,9.828467808013492
1158.846104877,12.097317367117117
1159.146104877,9.331081162748331
1159.446104877,10.718961115443047
1159.7461048769999,10.79656396442805
1160.046104877,9.613478712658853
1160.346104877,11.419935535676908
1160.646104877,12.157676732845895
1160.946104877,11.325685525269986
1161.2461048769999,11.814561442052218
1161.546104877,10.781170267861235
1161.846104877,11.068003963816075
1162.146104877,10.966302402704473
1162.446104877,11.0220910745409
1162.7461048769999,10.968003503177027
1163.046104877,10.418458893334401
1163.346104877,11.117999479973426
